Time (s)	Light Intensity (% of scale max)	Position (m)
0.0	0.06636	0.0
0.05	0.07184	0.0
0.1	0.07463	0.0
0.15	0.07741	0.0
0.2	0.0797	0.0
0.25	0.08292	0.0
0.3	0.08401	0.0
0.35	0.08478	0.0
0.4	0.08569	0.0
0.45	0.08681	0.0
0.5	0.08754	0.0
0.55	0.08797	0.0
0.6	0.08894	0.0
0.65	0.08928	0.0
0.7	0.08965	0.0
0.75	0.09	0.0
0.8	0.09062	0.0
0.85	0.09109	0.0
0.9	0.09152	0.0
0.95	0.09203	0.0
1.0	0.09218	0.0
1.05	0.09283	0.0
1.1	0.09352	0.0
1.15	0.09502	0.0
1.2	0.09586	0.0
1.25	0.09674	0.0
1.3	0.09703	0.0
1.35	0.09741	0.0
1.4	0.09698	0.0
1.45	0.09648	0.0
1.5	0.09676	0.0
1.55	0.1004	0.0
1.6	0.10258	0.0
1.65	0.10275	0.0
1.7	0.10248	0.0
1.75	0.10237	0.0
1.8	0.1024	0.0
1.85	0.10207	0.0
1.9	0.10194	0.0
1.95	0.10175	0.0
2.0	0.10168	0.0
2.05	0.10179	0.0
2.1	0.1013	0.0
2.15	0.10089	0.0
2.2	0.1008	0.0
2.25	0.10062	0.0
2.3	0.10022	0.0
2.35	0.10001	0.0
2.4	0.09991	0.0
2.45	0.09962	0.0
2.5	0.09949	0.0
2.55	0.09944	0.0
2.6	0.09898	0.0
2.65	0.09862	0.0
2.7	0.09851	0.0
2.75	0.09778	0.0
2.8	0.09682	0.0
2.85	0.09436	0.0
2.9	0.09328	0.0
2.95	0.09267	0.0
3.0	0.09268	0.0
3.05	0.09146	0.0
3.1	0.0894	0.0
3.15	0.08672	0.0
3.2	0.08412	0.0
3.25	0.08432	0.0
3.3	0.08646	0.0
3.35	0.08488	0.0
3.4	0.07915	0.0
3.45	0.07649	0.0
3.5	0.07381	0.0
3.55	0.06898	0.0
3.6	0.06699	0.0
3.65	0.06534	0.0
3.7	0.06419	0.0
3.75	0.062	0.0
3.8	0.06189	0.0
3.85	0.06282	0.0
3.9	0.06393	0.0
3.95	0.06491	0.0
4.0	0.06473	0.0
4.05	0.06419	0.0
4.1	0.06337	0.0
4.15	0.06247	0.0
4.2	0.06033	0.0
4.25	0.05975	0.0
4.3	0.0596	0.0
4.35	0.06009	0.0
4.4	0.06007	0.0
4.45	0.06068	0.0
4.5	0.0609	0.0
4.55	0.06181	0.0
4.6	0.06291	0.0
4.65	0.06358	0.0
4.7	0.06383	0.0
4.75	0.06407	0.0
4.8	0.06465	0.0
4.85	0.0647	0.0
4.9	0.06482	0.0
4.95	0.06482	0.0
5.0	0.06491	0.0
5.05	0.06494	0.0
5.1	0.06483	0.0
5.15	0.06454	0.0
5.2	0.06396	0.0
5.25	0.0639	0.0
5.3	0.06374	0.0
5.35	0.06364	0.0
5.4	0.06389	0.0
5.45	0.06381	0.0
5.5	0.06369	0.0
5.55	0.06401	0.0
5.6	0.064	0.0
5.65	0.06412	0.0
5.7	0.06404	0.0
5.75	0.06422	0.0
5.8	0.06386	-7.5e-05
5.85	0.06393	-5.625e-05
5.9	0.06348	0.0
5.95	0.06355	0.0
6.0	0.06329	0.0
6.05	0.0632	0.0
6.1	0.0629	-1.875e-05
6.15	0.06288	-3.75e-05
6.2	0.06262	-3.75e-05
6.25	0.06236	-3.75e-05
6.3	0.06258	-3.75e-05
6.35	0.06232	-3.75e-05
6.4	0.06241	-3.75e-05
6.45	0.06204	-3.75e-05
6.5	0.06212	-3.75e-05
6.55	0.06219	-3.75e-05
6.6	0.06192	-3.75e-05
6.65	0.06195	-3.75e-05
6.7	0.06206	-3.75e-05
6.75	0.06201	-3.75e-05
6.8	0.062	-3.75e-05
6.85	0.06203	-3.75e-05
6.9	0.06242	-3.75e-05
6.95	0.06268	-3.75e-05
7.0	0.06281	-3.75e-05
7.05	0.06284	-3.75e-05
7.1	0.06279	-3.75e-05
7.15	0.06282	-3.75e-05
7.2	0.0634	-3.75e-05
7.25	0.06334	-3.75e-05
7.3	0.0631	-3.75e-05
7.35	0.06332	-3.75e-05
7.4	0.06342	-3.75e-05
7.45	0.06358	-3.75e-05
7.5	0.06348	-3.75e-05
7.55	0.06361	-3.75e-05
7.6	0.06372	-3.75e-05
7.65	0.06335	-3.75e-05
7.7	0.06352	-3.75e-05
7.75	0.06367	-3.75e-05
7.8	0.06329	-3.75e-05
7.85	0.06314	-3.75e-05
7.9	0.06313	-3.75e-05
7.95	0.06308	-3.75e-05
8.0	0.06331	-3.75e-05
8.05	0.06285	-3.75e-05
8.1	0.06308	-3.75e-05
8.15	0.06268	-3.75e-05
8.2	0.06264	-3.75e-05
8.25	0.06279	-3.75e-05
8.3	0.06256	-3.75e-05
8.35	0.06248	-3.75e-05
8.4	0.06238	-3.75e-05
8.45	0.06256	-3.75e-05
8.5	0.06223	-3.75e-05
8.55	0.06212	-3.75e-05
8.6	0.06209	-3.75e-05
8.65	0.06181	-3.75e-05
8.7	0.0619	-3.75e-05
8.75	0.06177	-3.75e-05
8.8	0.06157	-3.75e-05
8.85	0.06187	-3.75e-05
8.9	0.06172	-3.75e-05
8.95	0.06178	-3.75e-05
9.0	0.06175	-3.75e-05
9.05	0.06154	-3.75e-05
9.1	0.06149	-3.75e-05
9.15	0.06169	-3.75e-05
9.2	0.0616	-3.75e-05
9.25	0.06174	-3.75e-05
9.3	0.06186	-3.75e-05
9.35	0.06152	-3.75e-05
9.4	0.06161	-3.75e-05
9.45	0.06181	-3.75e-05
9.5	0.06174	-3.75e-05
9.55	0.06163	-3.75e-05
9.6	0.06183	-3.75e-05
9.65	0.06168	-3.75e-05
9.7	0.06187	-3.75e-05
9.75	0.06194	-3.75e-05
9.8	0.06204	-3.75e-05
9.85	0.06213	-3.75e-05
9.9	0.0621	-3.75e-05
9.95	0.06219	-3.75e-05
10.0	0.06178	-3.75e-05
10.05	0.06195	-3.75e-05
10.1	0.06178	-3.75e-05
10.15	0.0618	-3.75e-05
10.2	0.06155	-3.75e-05
10.25	0.06163	-3.75e-05
10.3	0.06134	-3.75e-05
10.35	0.06136	-3.75e-05
10.4	0.06139	-3.75e-05
10.45	0.06142	-3.75e-05
10.5	0.0612	-3.75e-05
10.55	0.06117	-3.75e-05
10.6	0.06085	-3.75e-05
10.65	0.0611	-3.75e-05
10.7	0.0605	-3.75e-05
10.75	0.06107	-3.75e-05
10.8	0.06088	-3.75e-05
10.85	0.06093	-3.75e-05
10.9	0.0607	-3.75e-05
10.95	0.06097	-3.75e-05
11.0	0.06071	-3.75e-05
11.05	0.06091	-3.75e-05
11.1	0.06079	-3.75e-05
11.15	0.0609	-3.75e-05
11.2	0.06114	-3.75e-05
11.25	0.06078	-3.75e-05
11.3	0.06113	-3.75e-05
11.35	0.06099	-3.75e-05
11.4	0.06084	-3.75e-05
11.45	0.06117	-3.75e-05
11.5	0.06097	-3.75e-05
11.55	0.0612	-3.75e-05
11.6	0.06168	-3.75e-05
11.65	0.06143	-3.75e-05
11.7	0.06174	-3.75e-05
11.75	0.06172	-3.75e-05
11.8	0.0619	-3.75e-05
11.85	0.06165	-3.75e-05
11.9	0.06183	-3.75e-05
11.95	0.0614	-3.75e-05
12.0	0.06192	-3.75e-05
12.05	0.06194	-3.75e-05
12.1	0.06174	-3.75e-05
12.15	0.06155	-3.75e-05
12.2	0.06168	-3.75e-05
12.25	0.06172	-3.75e-05
12.3	0.06161	-3.75e-05
12.35	0.06155	-3.75e-05
12.4	0.06175	-3.75e-05
12.45	0.06151	-3.75e-05
12.5	0.06149	-3.75e-05
12.55	0.06168	-3.75e-05
12.6	0.06152	-3.75e-05
12.65	0.06152	-3.75e-05
12.7	0.06168	-3.75e-05
12.75	0.06129	-3.75e-05
12.8	0.06143	-3.75e-05
12.85	0.06142	-3.75e-05
12.9	0.06129	-3.75e-05
12.95	0.06117	-3.75e-05
13.0	0.06107	-3.75e-05
13.05	0.06104	-3.75e-05
13.1	0.0612	-3.75e-05
13.15	0.06122	-3.75e-05
13.2	0.06096	-3.75e-05
13.25	0.06096	-3.75e-05
13.3	0.06145	-3.75e-05
13.35	0.06111	-3.75e-05
13.4	0.0611	-3.75e-05
13.45	0.06131	-3.75e-05
13.5	0.06088	-3.75e-05
13.55	0.06099	-3.75e-05
13.6	0.06084	-3.75e-05
13.65	0.0605	-3.75e-05
13.7	0.06058	-3.75e-05
13.75	0.06062	-3.75e-05
13.8	0.06046	-3.75e-05
13.85	0.06033	-3.75e-05
13.9	0.06033	-3.75e-05
13.95	0.0601	-3.75e-05
14.0	0.06033	-3.75e-05
14.05	0.06059	-3.75e-05
14.1	0.06027	-3.75e-05
14.15	0.06039	-3.75e-05
14.2	0.06027	-3.75e-05
14.25	0.06056	-3.75e-05
14.3	0.06047	-3.75e-05
14.35	0.06038	-3.75e-05
14.4	0.06061	-3.75e-05
14.45	0.06082	-3.75e-05
14.5	0.0607	-3.75e-05
14.55	0.06064	-3.75e-05
14.6	0.06038	-3.75e-05
14.65	0.06042	-3.75e-05
14.7	0.06033	-3.75e-05
14.75	0.06024	-3.75e-05
14.8	0.0598	-3.75e-05
14.85	0.05971	-3.75e-05
14.9	0.05939	-3.75e-05
14.95	0.05945	-3.75e-05
15.0	0.05954	-3.75e-05
15.05	0.05966	-3.75e-05
15.1	0.05981	-3.75e-05
15.15	0.05991	-3.75e-05
15.2	0.05974	-3.75e-05
15.25	0.06023	-3.75e-05
15.3	0.05986	-3.75e-05
15.35	0.06015	-3.75e-05
15.4	0.06023	-3.75e-05
15.45	0.06001	-3.75e-05
15.5	0.06006	-3.75e-05
15.55	0.06006	-3.75e-05
15.6	0.06001	-3.75e-05
15.65	0.05969	-3.75e-05
15.7	0.05943	-3.75e-05
15.75	0.05931	-3.75e-05
15.8	0.05936	-3.75e-05
15.85	0.0593	-3.75e-05
15.9	0.05913	-3.75e-05
15.95	0.05917	-3.75e-05
16.0	0.05907	-3.75e-05
16.05	0.05875	-3.75e-05
16.1	0.05901	-3.75e-05
16.15	0.05881	-3.75e-05
16.2	0.05876	-3.75e-05
16.25	0.05882	-3.75e-05
16.3	0.05832	-3.75e-05
16.35	0.0584	-3.75e-05
16.4	0.05832	-3.75e-05
16.45	0.05801	-3.75e-05
16.5	0.05836	-3.75e-05
16.55	0.05806	-3.75e-05
16.6	0.05818	-3.75e-05
16.65	0.05754	-3.75e-05
16.7	0.05798	-3.75e-05
16.75	0.05783	-3.75e-05
16.8	0.05844	-3.75e-05
16.85	0.05823	-3.75e-05
16.9	0.05833	-3.75e-05
16.95	0.05849	-3.75e-05
17.0	0.05846	-3.75e-05
17.05	0.05846	-3.75e-05
17.1	0.05896	-3.75e-05
17.15	0.05905	-3.75e-05
17.2	0.05923	-3.75e-05
17.25	0.05943	-3.75e-05
17.3	0.05954	-3.75e-05
17.35	0.0596	-3.75e-05
17.4	0.05972	-3.75e-05
17.45	0.05986	-3.75e-05
17.5	0.05968	-3.75e-05
17.55	0.06012	-3.75e-05
17.6	0.05997	-3.75e-05
17.65	0.05995	-3.75e-05
17.7	0.06032	-3.75e-05
17.75	0.06041	-3.75e-05
17.8	0.06021	-3.75e-05
17.85	0.06047	-3.75e-05
17.9	0.06053	-3.75e-05
17.95	0.06027	-3.75e-05
18.0	0.06061	-3.75e-05
18.05	0.06042	-3.75e-05
18.1	0.06032	-3.75e-05
18.15	0.06056	-3.75e-05
18.2	0.06041	-3.75e-05
18.25	0.06061	-3.75e-05
18.3	0.06036	-3.75e-05
18.35	0.06039	-3.75e-05
18.4	0.06064	-3.75e-05
18.45	0.06087	-3.75e-05
18.5	0.06085	-3.75e-05
18.55	0.06093	-3.75e-05
18.6	0.06123	-3.75e-05
18.65	0.06108	-3.75e-05
18.7	0.06151	-3.75e-05
18.75	0.06152	-3.75e-05
18.8	0.06136	-3.75e-05
18.85	0.06172	-3.75e-05
18.9	0.06194	-3.75e-05
18.95	0.06189	-3.75e-05
19.0	0.06194	-3.75e-05
19.05	0.06242	-3.75e-05
19.1	0.06256	-3.75e-05
19.15	0.06233	-3.75e-05
19.2	0.06215	-3.75e-05
19.25	0.06244	-3.75e-05
19.3	0.06229	-3.75e-05
19.35	0.06256	-3.75e-05
19.4	0.06209	-3.75e-05
19.45	0.06218	-3.75e-05
19.5	0.0619	-3.75e-05
19.55	0.06194	-3.75e-05
19.6	0.06186	-3.75e-05
19.65	0.06186	-3.75e-05
19.7	0.06155	-3.75e-05
19.75	0.06165	-3.75e-05
19.8	0.06151	-3.75e-05
19.85	0.06154	-3.75e-05
19.9	0.0614	-3.75e-05
19.95	0.06129	-3.75e-05
20.0	0.06137	-3.75e-05
20.05	0.06154	-3.75e-05
20.1	0.06166	-3.75e-05
20.15	0.062	-3.75e-05
20.2	0.06229	-3.75e-05
20.25	0.06241	-3.75e-05
20.3	0.06271	-3.75e-05
20.35	0.06279	-3.75e-05
20.4	0.06287	-3.75e-05
20.45	0.06311	-3.75e-05
20.5	0.06305	-3.75e-05
20.55	0.0631	-3.75e-05
20.6	0.06319	-3.75e-05
20.65	0.06342	-3.75e-05
20.7	0.06299	-3.75e-05
20.75	0.06308	-3.75e-05
20.8	0.06308	-3.75e-05
20.85	0.06323	-3.75e-05
20.9	0.06357	-3.75e-05
20.95	0.06378	-3.75e-05
21.0	0.06372	-3.75e-05
21.05	0.0639	-3.75e-05
21.1	0.06406	-3.75e-05
21.15	0.06395	-3.75e-05
21.2	0.06383	-3.75e-05
21.25	0.06357	-3.75e-05
21.3	0.06334	-3.75e-05
21.35	0.06313	-3.75e-05
21.4	0.063	-3.75e-05
21.45	0.06291	-3.75e-05
21.5	0.06305	-3.75e-05
21.55	0.06306	-3.75e-05
21.6	0.06314	-3.75e-05
21.65	0.06303	-3.75e-05
21.7	0.06306	-3.75e-05
21.75	0.06358	-3.75e-05
21.8	0.06343	-3.75e-05
21.85	0.06367	-3.75e-05
21.9	0.06371	-3.75e-05
21.95	0.06384	-3.75e-05
22.0	0.06367	-3.75e-05
22.05	0.06364	-3.75e-05
22.1	0.06374	-3.75e-05
22.15	0.06351	-3.75e-05
22.2	0.06367	-3.75e-05
22.25	0.06342	-3.75e-05
22.3	0.06354	-3.75e-05
22.35	0.06366	-3.75e-05
22.4	0.06352	-3.75e-05
22.45	0.06348	-3.75e-05
22.5	0.06348	-3.75e-05
22.55	0.06337	-3.75e-05
22.6	0.06328	-3.75e-05
22.65	0.0632	-3.75e-05
22.7	0.06305	-3.75e-05
22.75	0.06287	-3.75e-05
22.8	0.0629	-3.75e-05
22.85	0.06267	-3.75e-05
22.9	0.06256	-3.75e-05
22.95	0.06255	-3.75e-05
23.0	0.06226	-3.75e-05
23.05	0.06213	-3.75e-05
23.1	0.06235	-3.75e-05
23.15	0.06206	-3.75e-05
23.2	0.06207	-3.75e-05
23.25	0.06187	-3.75e-05
23.3	0.06171	-3.75e-05
23.35	0.06158	-3.75e-05
23.4	0.06175	-3.75e-05
23.45	0.06148	-3.75e-05
23.5	0.06174	-3.75e-05
23.55	0.06165	-3.75e-05
23.6	0.06146	-3.75e-05
23.65	0.0614	-3.75e-05
23.7	0.06155	-3.75e-05
23.75	0.06139	-3.75e-05
23.8	0.06139	-3.75e-05
23.85	0.06158	-3.75e-05
23.9	0.06148	-3.75e-05
23.95	0.06161	-3.75e-05
24.0	0.06151	-3.75e-05
24.05	0.06171	-3.75e-05
24.1	0.06149	-3.75e-05
24.15	0.06157	-3.75e-05
24.2	0.06166	-3.75e-05
24.25	0.06166	-3.75e-05
24.3	0.0616	-3.75e-05
24.35	0.06163	-3.75e-05
24.4	0.0616	-3.75e-05
24.45	0.0614	-3.75e-05
24.5	0.06133	-3.75e-05
24.55	0.0612	-3.75e-05
24.6	0.06105	-3.75e-05
24.65	0.06084	-3.75e-05
24.7	0.06078	-3.75e-05
24.75	0.06064	-3.75e-05
24.8	0.06061	-3.75e-05
24.85	0.06081	-3.75e-05
24.9	0.06038	-3.75e-05
24.95	0.06068	-3.75e-05
25.0	0.06044	-3.75e-05
25.05	0.06047	-3.75e-05
25.1	0.06044	-3.75e-05
25.15	0.05986	-3.75e-05
25.2	0.05939	-3.75e-05
25.25	0.05968	-3.75e-05
25.3	0.0594	-3.75e-05
25.35	0.05898	-3.75e-05
25.4	0.0587	-3.75e-05
25.45	0.0589	-3.75e-05
25.5	0.05952	-3.75e-05
25.55	0.06033	-3.75e-05
25.6	0.06096	-3.75e-05
25.65	0.06267	-3.75e-05
25.7	0.06314	-3.75e-05
25.75	0.06371	-3.75e-05
25.8	0.0636	-3.75e-05
25.85	0.06383	-3.75e-05
25.9	0.06367	-3.75e-05
25.95	0.06375	-3.75e-05
26.0	0.06357	-3.75e-05
26.05	0.06351	-3.75e-05
26.1	0.06358	-3.75e-05
26.15	0.06328	-3.75e-05
26.2	0.06288	-3.75e-05
26.25	0.06293	-3.75e-05
26.3	0.06281	-3.75e-05
26.35	0.0623	-3.75e-05
26.4	0.06186	-3.75e-05
26.45	0.06058	-3.75e-05
26.5	0.0598	-3.75e-05
26.55	0.05891	-3.75e-05
26.6	0.0587	-3.75e-05
26.65	0.05902	-3.75e-05
26.7	0.05907	-3.75e-05
26.75	0.0591	-3.75e-05
26.8	0.0592	-3.75e-05
26.85	0.0594	-3.75e-05
26.9	0.05928	-3.75e-05
26.95	0.05981	-3.75e-05
27.0	0.05978	-3.75e-05
27.05	0.06001	-3.75e-05
27.1	0.06001	-3.75e-05
27.15	0.06015	-3.75e-05
27.2	0.06013	-3.75e-05
27.25	0.06018	-3.75e-05
27.3	0.06042	-3.75e-05
27.35	0.06033	-3.75e-05
27.4	0.0603	-3.75e-05
27.45	0.06047	-3.75e-05
27.5	0.06049	-3.75e-05
27.55	0.06056	-3.75e-05
27.6	0.06049	-3.75e-05
27.65	0.05995	-3.75e-05
27.7	0.0598	-3.75e-05
27.75	0.05989	-3.75e-05
27.8	0.05962	-3.75e-05
27.85	0.05981	-3.75e-05
27.9	0.05992	-3.75e-05
27.95	0.06015	-3.75e-05
28.0	0.06049	-3.75e-05
28.05	0.061	-3.75e-05
28.1	0.0619	-3.75e-05
28.15	0.06197	-3.75e-05
28.2	0.06207	-3.75e-05
28.25	0.06264	-3.75e-05
28.3	0.06256	-3.75e-05
28.35	0.06297	-3.75e-05
28.4	0.06285	-3.75e-05
28.45	0.06303	-3.75e-05
28.5	0.06274	-3.75e-05
28.55	0.06235	-3.75e-05
28.6	0.06189	-3.75e-05
28.65	0.06177	-3.75e-05
28.7	0.06035	-3.75e-05
28.75	0.06012	-3.75e-05
28.8	0.05992	-3.75e-05
28.85	0.05943	-3.75e-05
28.9	0.05913	-3.75e-05
28.95	0.05907	-3.75e-05
29.0	0.05908	-3.75e-05
29.05	0.05963	-3.75e-05
29.1	0.05977	-3.75e-05
29.15	0.05986	-3.75e-05
29.2	0.06013	-3.75e-05
29.25	0.06029	-3.75e-05
29.3	0.06056	-3.75e-05
29.35	0.06053	-3.75e-05
29.4	0.06076	-3.75e-05
29.45	0.06093	-3.75e-05
29.5	0.0609	-3.75e-05
29.55	0.06082	-3.75e-05
29.6	0.06099	-3.75e-05
29.65	0.06119	-3.75e-05
29.7	0.06107	-3.75e-05
29.75	0.06107	-3.75e-05
29.8	0.0614	-3.75e-05
29.85	0.06097	-3.75e-05
29.9	0.0609	-3.75e-05
29.95	0.06073	-3.75e-05
30.0	0.0609	-3.75e-05
30.05	0.06105	-3.75e-05
30.1	0.06105	-3.75e-05
30.15	0.06088	-3.75e-05
30.2	0.06113	-3.75e-05
30.25	0.06123	-3.75e-05
30.3	0.06128	-3.75e-05
30.35	0.06126	-3.75e-05
30.4	0.06104	-3.75e-05
30.45	0.06131	-3.75e-05
30.5	0.06105	-3.75e-05
30.55	0.06136	-3.75e-05
30.6	0.06142	-3.75e-05
30.65	0.06116	-3.75e-05
30.7	0.06126	-3.75e-05
30.75	0.06134	-3.75e-05
30.8	0.06136	-3.75e-05
30.85	0.06111	-3.75e-05
30.9	0.06136	-3.75e-05
30.95	0.06082	-3.75e-05
31.0	0.06093	-3.75e-05
31.05	0.06064	-3.75e-05
31.1	0.06094	-3.75e-05
31.15	0.06042	-3.75e-05
31.2	0.06059	-3.75e-05
31.25	0.06071	-3.75e-05
31.3	0.06007	-3.75e-05
31.35	0.06044	-3.75e-05
31.4	0.06013	-3.75e-05
31.45	0.05978	-3.75e-05
31.5	0.05998	-3.75e-05
31.55	0.06035	-3.75e-05
31.6	0.06024	-3.75e-05
31.65	0.06009	-3.75e-05
31.7	0.06018	-3.75e-05
31.75	0.06027	-3.75e-05
31.8	0.06024	-3.75e-05
31.85	0.06017	-3.75e-05
31.9	0.06009	-3.75e-05
31.95	0.05994	-3.75e-05
32.0	0.0601	-3.75e-05
32.05	0.06023	-3.75e-05
32.1	0.05977	-3.75e-05
32.15	0.05975	-3.75e-05
32.2	0.05991	-3.75e-05
32.25	0.05972	-3.75e-05
32.3	0.05995	-3.75e-05
32.35	0.05956	-3.75e-05
32.4	0.05919	-3.75e-05
32.45	0.05928	-3.75e-05
32.5	0.0594	-3.75e-05
32.55	0.05984	-3.75e-05
32.6	0.06021	-3.75e-05
32.65	0.06038	-3.75e-05
32.7	0.06007	-3.75e-05
32.75	0.0594	-3.75e-05
32.8	0.05942	-3.75e-05
32.85	0.05931	-3.75e-05
32.9	0.0591	-3.75e-05
32.95	0.05943	-3.75e-05
33.0	0.05969	-3.75e-05
33.05	0.05989	-3.75e-05
33.1	0.05991	-3.75e-05
33.15	0.06035	-3.75e-05
33.2	0.05988	-3.75e-05
33.25	0.05946	-3.75e-05
33.3	0.05966	-3.75e-05
33.35	0.05933	-3.75e-05
33.4	0.05869	-3.75e-05
33.45	0.05833	-3.75e-05
33.5	0.0584	-3.75e-05
33.55	0.05818	-3.75e-05
33.6	0.05777	-3.75e-05
33.65	0.05774	-3.75e-05
33.7	0.05742	-3.75e-05
33.75	0.05766	-3.75e-05
33.8	0.0573	-3.75e-05
33.85	0.05731	-3.75e-05
33.9	0.05728	-3.75e-05
33.95	0.0571	-3.75e-05
34.0	0.05702	-3.75e-05
34.05	0.05714	-3.75e-05
34.1	0.05707	-3.75e-05
34.15	0.05676	-3.75e-05
34.2	0.05722	-3.75e-05
34.25	0.05717	-3.75e-05
34.3	0.05714	-3.75e-05
34.35	0.05699	-3.75e-05
34.4	0.05659	-3.75e-05
34.45	0.05647	-3.75e-05
34.5	0.05603	-3.75e-05
34.55	0.05623	-3.75e-05
34.6	0.05637	-3.75e-05
34.65	0.05655	-3.75e-05
34.7	0.05653	-3.75e-05
34.75	0.0562	-3.75e-05
34.8	0.05632	-3.75e-05
34.85	0.05615	-3.75e-05
34.9	0.05629	-3.75e-05
34.95	0.05652	-3.75e-05
35.0	0.05669	-3.75e-05
35.05	0.05637	-3.75e-05
35.1	0.05626	-3.75e-05
35.15	0.05641	-3.75e-05
35.2	0.0562	-3.75e-05
35.25	0.05612	-3.75e-05
35.3	0.05611	-3.75e-05
35.35	0.05554	-3.75e-05
35.4	0.05598	-3.75e-05
35.45	0.05563	-3.75e-05
35.5	0.05537	-3.75e-05
35.55	0.05542	-3.75e-05
35.6	0.0551	-3.75e-05
35.65	0.05493	-3.75e-05
35.7	0.0547	-3.75e-05
35.75	0.05469	-3.75e-05
35.8	0.05438	-3.75e-05
35.85	0.05452	-3.75e-05
35.9	0.05447	-3.75e-05
35.95	0.05438	-3.75e-05
36.0	0.05411	-3.75e-05
36.05	0.05417	-3.75e-05
36.1	0.05429	-3.75e-05
36.15	0.05399	-3.75e-05
36.2	0.05434	-3.75e-05
36.25	0.05469	-3.75e-05
36.3	0.05467	-3.75e-05
36.35	0.05478	-3.75e-05
36.4	0.05505	-3.75e-05
36.45	0.05519	-3.75e-05
36.5	0.05528	-3.75e-05
36.55	0.05542	-3.75e-05
36.6	0.05557	-3.75e-05
36.65	0.05583	-3.75e-05
36.7	0.05583	-3.75e-05
36.75	0.05583	-3.75e-05
36.8	0.05577	-3.75e-05
36.85	0.05603	-3.75e-05
36.9	0.05583	-3.75e-05
36.95	0.0564	-3.75e-05
37.0	0.05646	-3.75e-05
37.05	0.05649	-3.75e-05
37.1	0.05656	-3.75e-05
37.15	0.05679	-3.75e-05
37.2	0.05673	-3.75e-05
37.25	0.05684	-3.75e-05
37.3	0.05682	-3.75e-05
37.35	0.05676	-3.75e-05
37.4	0.05692	-3.75e-05
37.45	0.05692	-3.75e-05
37.5	0.05678	-3.75e-05
37.55	0.05719	-3.75e-05
37.6	0.05693	-3.75e-05
37.65	0.05684	-3.75e-05
37.7	0.05678	-3.75e-05
37.75	0.05658	-3.75e-05
37.8	0.05661	-3.75e-05
37.85	0.05672	-3.75e-05
37.9	0.05667	-3.75e-05
37.95	0.05684	-3.75e-05
38.0	0.05687	-3.75e-05
38.05	0.05708	-3.75e-05
38.1	0.05727	-3.75e-05
38.15	0.05724	-3.75e-05
38.2	0.05754	-3.75e-05
38.25	0.05782	-3.75e-05
38.3	0.05756	-3.75e-05
38.35	0.05814	-3.75e-05
38.4	0.05804	-3.75e-05
38.45	0.05804	-3.75e-05
38.5	0.05775	-3.75e-05
38.55	0.05806	-3.75e-05
38.6	0.05804	-3.75e-05
38.65	0.05768	-3.75e-05
38.7	0.05788	-3.75e-05
38.75	0.058	-3.75e-05
38.8	0.05807	-3.75e-05
38.85	0.05748	-3.75e-05
38.9	0.05807	-3.75e-05
38.95	0.05844	-3.75e-05
39.0	0.05856	-3.75e-05
39.05	0.05872	-3.75e-05
39.1	0.05876	-3.75e-05
39.15	0.05875	-3.75e-05
39.2	0.05853	-3.75e-05
39.25	0.05879	-3.75e-05
39.3	0.05891	-3.75e-05
39.35	0.0591	-3.75e-05
39.4	0.0596	-3.75e-05
39.45	0.05968	-3.75e-05
39.5	0.05969	-3.75e-05
39.55	0.05963	-3.75e-05
39.6	0.05988	-3.75e-05
39.65	0.06021	-3.75e-05
39.7	0.06006	-3.75e-05
39.75	0.06021	-3.75e-05
39.8	0.0605	-3.75e-05
39.85	0.06044	-3.75e-05
39.9	0.06041	-3.75e-05
39.95	0.06033	-3.75e-05
40.0	0.06036	-3.75e-05
40.05	0.06041	-3.75e-05
40.1	0.06012	-3.75e-05
40.15	0.05997	-3.75e-05
40.2	0.06007	-3.75e-05
40.25	0.05997	-3.75e-05
40.3	0.05936	-3.75e-05
40.35	0.05962	-3.75e-05
40.4	0.05934	-3.75e-05
40.45	0.05936	-3.75e-05
40.5	0.0596	-3.75e-05
40.55	0.05931	-3.75e-05
40.6	0.05939	-3.75e-05
40.65	0.05952	-3.75e-05
40.7	0.05922	-3.75e-05
40.75	0.05962	-3.75e-05
40.8	0.05937	-3.75e-05
40.85	0.0593	-3.75e-05
40.9	0.05939	-3.75e-05
40.95	0.05933	-3.75e-05
41.0	0.05937	-3.75e-05
41.05	0.05949	-3.75e-05
41.1	0.05981	-3.75e-05
41.15	0.05963	-3.75e-05
41.2	0.05966	-3.75e-05
41.25	0.06001	-3.75e-05
41.3	0.05991	-3.75e-05
41.35	0.05991	-3.75e-05
41.4	0.05997	-3.75e-05
41.45	0.05994	-3.75e-05
41.5	0.06001	-3.75e-05
41.55	0.06017	-3.75e-05
41.6	0.06004	-3.75e-05
41.65	0.05998	-3.75e-05
41.7	0.06023	-3.75e-05
41.75	0.06047	-3.75e-05
41.8	0.06033	-3.75e-05
41.85	0.06035	-3.75e-05
41.9	0.06073	-3.75e-05
41.95	0.06061	-3.75e-05
42.0	0.06084	-3.75e-05
42.05	0.06094	-3.75e-05
42.1	0.0609	-3.75e-05
42.15	0.06088	-3.75e-05
42.2	0.06125	-3.75e-05
42.25	0.0611	-3.75e-05
42.3	0.06087	-3.75e-05
42.35	0.06093	-3.75e-05
42.4	0.06076	-3.75e-05
42.45	0.06076	-3.75e-05
42.5	0.06023	-3.75e-05
42.55	0.06027	-3.75e-05
42.6	0.06013	-3.75e-05
42.65	0.05991	-3.75e-05
42.7	0.05962	-3.75e-05
42.75	0.0594	-3.75e-05
42.8	0.05936	-3.75e-05
42.85	0.0593	-3.75e-05
42.9	0.05905	-3.75e-05
42.95	0.05896	-3.75e-05
43.0	0.0589	-3.75e-05
43.05	0.05884	-3.75e-05
43.1	0.05928	-3.75e-05
43.15	0.05911	-3.75e-05
43.2	0.05884	-3.75e-05
43.25	0.0591	-3.75e-05
43.3	0.05914	-3.75e-05
43.35	0.05949	-3.75e-05
43.4	0.05981	-3.75e-05
43.45	0.05966	-3.75e-05
43.5	0.06	-3.75e-05
43.55	0.06017	-3.75e-05
43.6	0.06032	-3.75e-05
43.65	0.06055	-3.75e-05
43.7	0.06046	-3.75e-05
43.75	0.06091	-3.75e-05
43.8	0.06093	-3.75e-05
43.85	0.0612	-3.75e-05
43.9	0.06119	-3.75e-05
43.95	0.06168	-3.75e-05
44.0	0.06129	-3.75e-05
44.05	0.06186	-3.75e-05
44.1	0.0616	-3.75e-05
44.15	0.06169	-3.75e-05
44.2	0.06215	-3.75e-05
44.25	0.06212	-3.75e-05
44.3	0.0621	-3.75e-05
44.35	0.06215	-3.75e-05
44.4	0.06224	-3.75e-05
44.45	0.06229	-3.75e-05
44.5	0.06194	-3.75e-05
44.55	0.06195	-3.75e-05
